EmissionWavelength;Intensity;IntensityStdError;RealTime;RealTemperature
490;58014.4;242,50544;1119,9865;19,5733
491;75342.4;372,27469;1121,5024;19,5733
492;97246.4;286,20428;1122,6598;19,5733
493;122098.4;235,62305;1123,8236;19,5733
494;147506.4;361,62842;1125,0005;19,57
495;172538.4;581,96449;1126,2404;19,57
496;194726.4;547,37515;1127,3538;19,57
497;214842.4;443,54331;1128,5533;19,57
498;230842.4;517,36254;1129,7088;19,57
499;244106.4;524,90168;1130,828;19,57
500;251802.4;520,92397;1132,0309;19,57
501;257502.4;630,19715;1133,1697;19,57
502;257402.4;488,88263;1134,3419;19,57
503;258650.4;774,17081;1135,4994;19,57
504;255014.4;551,71651;1136,6544;19,57
505;253602.4;564,93225;1137,805;19,57
506;249846.4;467,87653;1138,9776;19,57
507;247122.4;477,17875;1140,1226;19,57
508;244618.4;587,70968;1141,2809;19,57
509;241730.4;417,03504;1142,437;19,57
510;238690.4;553,69306;1143,5925;19,57
511;238774.4;412,04099;1144,7481;19,57
512;236754.4;664,08165;1145,907;19,57
513;235446.4;302,21699;1147,0626;19,5666
514;234442.4;516,02067;1148,2247;19,57
515;235738.4;573,09918;1149,3655;19,57
516;234598.4;459,92077;1150,5281;19,57
517;235406.4;587,65977;1151,6864;19,5666
518;233354.4;539,83537;1152,8325;19,5666
519;234654.4;513,35931;1153,9873;19,5666
520;233678.4;325,68287;1155,1512;19,5666
521;232830.4;479,34029;1156,3055;19,5666
522;231510.4;310,07956;1157,4625;19,5666
523;229814.4;364,56367;1158,6194;19,5666
524;227038.4;301,35693;1159,7745;19,5666
525;225106.4;574,48102;1160,9282;19,5666
526;221830.4;452,32044;1162,0973;19,5666
527;218586.4;603,54656;1163,2402;19,5666
528;214890.4;388,24734;1164,3989;19,5666
529;209442.4;547,61057;1165,5497;19,5666
530;204838.4;629,13556;1166,7217;19,5666
531;200166.4;579,71027;1167,8749;19,5666
532;193470.4;404,12099;1169,0353;19,5666
533;188574.4;442,8594;1170,1833;19,5666
534;182846.4;500,33944;1171,3411;19,5666
535;176630.4;819,50012;1172,5027;19,5666
536;170214.4;356,62617;1173,6473;19,5666
537;164662.4;570,71651;1174,8055;19,5666
538;158158.4;464,8039;1175,9616;19,5666
539;152982.4;524,0458;1177,1042;19,57
540;145754.4;409,75874;1178,2803;19,57
541;140442.4;562,25103;1179,4427;19,57
542;134842.4;503,99471;1180,5994;19,57
543;129234.4;515,68293;1181,7474;19,57
544;123258.4;496,5821;1182,9082;19,57
545;118186.4;452,23593;1184,0484;19,57
546;113622.4;355,36773;1185,2192;19,5666
547;109250.4;304,65718;1186,3656;19,57
548;103742.4;273,3691;1187,5201;19,57
549;100210.4;328,63083;1188,6845;19,57
550;95806.4;229,22478;1189,8412;19,57
551;91530.4;359,18179;1191,0002;19,57
552;88110.4;409,58299;1192,1491;19,57
553;84910.4;131,20976;1193,2905;19,57
554;80930.4;310,43768;1194,458;19,57
555;78170.4;212,03354;1195,6185;19,57
556;75358.4;342,39418;1196,7581;19,57
557;72618.4;321,96342;1197,801;19,57
558;69782.4;241,97704;1198,976;19,57
559;67446.4;259,69555;1200,1323;19,57
560;65230.4;201,96369;1201,2883;19,57
561;62454.4;319,66649;1202,4319;19,57
562;59990.4;247,81355;1203,593;19,57
563;58646.4;191,25782;1204,7168;19,57
564;56242.4;262,50418;1205,8969;19,57
565;54266.4;310,701;1207,0611;19,57
566;52594.4;365,8415;1208,1987;19,57
567;50754.4;145,23544;1209,3674;19,57
568;48770.4;300,01185;1210,5176;19,57
569;47282.4;214,66667;1211,6747;19,57
570;45622.4;188,16541;1212,8341;19,57
571;44430.4;162,1193;1213,9712;19,57
572;42818.4;222,42702;1215,1371;19,57
573;41214.4;237,24343;1216,2813;19,57
574;39434.4;210,58648;1217,4431;19,57
575;38162.4;182,91953;1218,6025;19,57
576;36714.4;268,27846;1219,7545;19,57
577;35686.4;177,56877;1220,8984;19,57
578;34074.4;196,2538;1222,0262;19,57
579;33282.4;174,46299;1223,2266;19,57
580;31450.4;146,23573;1224,3769;19,57
581;30654.4;122,92726;1225,5367;19,57
582;29590.4;231,2632;1226,6919;19,57
583;28482.4;178,69154;1227,8343;19,57
584;27306.4;155,1544;1229,0017;19,57
585;26458.4;170,79683;1230,1526;19,57
586;25318.4;183,12837;1231,2989;19,5733
587;24470.4;203,27977;1232,4554;19,5733
588;24030.4;188,01418;1233,6073;19,5733
589;22686.4;171,66375;1234,7729;19,5733
590;21634.4;136,00654;1235,9244;19,5733
591;21070.4;232,4899;1237,0938;19,5733
592;20094.4;180,66544;1238,2224;19,5733
593;19478.4;118,98833;1239,4028;19,5733
594;18698.4;174,70737;1240,5491;19,5733
595;18014.4;141,60979;1241,713;19,5733
596;17006.4;110,72288;1242,8685;19,5733
597;16514.4;134,16408;1244,0108;19,5733
598;16090.4;201,0152;1245,1765;19,5733
599;15230.4;131,48046;1246,331;19,5733
600;14746.4;88,050491;1247,494;19,5733
601;14310.4;142,01095;1248,6523;19,5733
602;13414.4;98,522417;1249,8032;19,5733
603;13326.4;119,82209;1250,9585;19,5733
604;12802.4;142,8659;1252,1315;19,5733
605;12290.4;124,42936;1253,3696;19,5733
606;11786.4;75,906375;1254,5354;19,5733
607;11318.4;86,245129;1255,6967;19,5866
608;11082.4;86,420162;1256,8414;19,5866
609;10818.4;116,45886;1257,9856;19,5866
610;10214.4;83,052861;1259,0363;19,5866
611;9966.4;83,650065;1260,1685;19,5866
612;9654.4;108,15627;1261,3691;19,5866
613;9114.4;80,498447;1262,5134;19,5866
614;8918.4;104,51156;1263,6716;19,5866
615;8786.4;64,511842;1264,8253;19,5866
616;8462.4;88,403117;1265,9521;19,5866
617;8122.4;49,188978;1267,1355;19,58
618;7902.4;78,610149;1268,2884;19,58
619;7694.4;88,242091;1269,4583;19,58
620;7418.4;112,2616;1270,6057;19,58
621;7258.4;62,096699;1271,7286;19,58
622;6994.4;94,891751;1272,9181;19,58
623;6910.4;85,831877;1274,0773;19,58
624;6490.4;83,575648;1275,2174;19,58
625;6430.4;83,095661;1276,384;19,58
626;6198.4;82,666667;1277,5426;19,58
627;5978.4;65,713181;1278,6561;19,58
628;5806.4;81,714952;1279,8503;19,58
629;5614.4;98,522417;1281,0084;19,58
630;5314.4;82,892166;1282,1672;19,58
631;5314.4;88,090862;1283,3076;19,58
632;5198.4;84,580008;1284,4917;19,58
633;5014.4;62,822501;1285,6389;19,58
634;4710.4;82,451332;1286,7993;19,58
635;4690.4;96,783837;1287,9528;19,58
636;4602.4;74,726167;1289,1211;19,58
637;4306.4;76,373352;1290,3682;19,58
638;4254.4;53,995885;1291,5292;19,58
639;4106.4;92;1292,689;19,58
640;4110.4;50,666667;1293,843;19,58
641;3646.4;95,925897;1295,0088;19,58
642;3750.4;49,243161;1296,1559;19,58
643;3726.4;49,817445;1297,3188;19,58
644;3498.4;45,587523;1298,4617;19,58
645;3398.4;64,553165;1299,6221;19,58
646;3346.4;59,344568;1300,7666;19,58
647;3286.4;71,005477;1301,9248;19,58
648;3098.4;61,809744;1303,091;19,58
649;3246.4;88,403117;1304,2377;19,58
650;3030.4;68,818602;1305,3998;19,58
651;2954.4;70,616334;1306,5485;19,5933
652;2910.4;55,681635;1307,7108;19,5933
653;2666.4;41,333333;1308,8668;19,5933
654;2686.4;37,617963;1310,018;19,5933
655;2658.4;45,19587;1311,18;19,5933
656;2506.4;34,794636;1312,3337;19,5933
657;2494.4;59,329588;1313,4866;19,5933
658;2350.4;45,879068;1314,6476;19,5933
659;2326.4;37,617963;1315,8191;19,5933
660;2230.4;26,799668;1316,977;19,5933
661;2090.4;30,081371;1318,1259;19,5966
662;2162.4;31,012542;1319,2855;19,5966
663;2054.4;48,442406;1320,4468;19,5966
664;1926.4;44,141188;1321,5994;19,5966
665;2082.4;39,123735;1322,7517;19,5966
666;1946.4;42,604121;1323,8592;19,5966
667;1906.4;50,261538;1324,9413;19,5966
668;1898.4;58,863307;1326,0772;19,5966
669;1662.4;50,876757;1327,255;19,5966
670;1826.4;62,268237;1328,3123;19,5966
671;1762.4;27,357713;1329,482;19,59
672;1590.4;62,879073;1330,6275;19,59
673;1594.4;59,404452;1331,7915;19,59
674;1574.4;35,276684;1332,9539;19,59
675;1558.4;48,14792;1334,1149;19,59
676;1530.4;34,486712;1335,256;19,59
677;1438.4;40,966111;1336,4136;19,59
678;1382.4;36,172427;1337,5722;19,59
679;1398.4;40,529824;1338,7351;19,59
680;1342.4;55,23284;1339,8911;19,59
681;1314.4;32,249031;1341,0486;19,59
682;1306.4;16,918103;1342,2057;19,59
683;1290.4;50,402822;1343,3645;19,59
684;1258.4;39,305075;1344,5245;19,59
685;1278.4;21,664102;1345,6796;19,6
686;1166.4;44,939465;1346,835;19,6
687;1122.4;43,019375;1347,9926;19,6
688;1226.4;31,012542;1349,1375;19,6
689;1226.4;43,838086;1350,2966;19,6
690;1210.4;24,184476;1351,4542;19,6
691;1170.4;45,975839;1352,6097;19,6
692;1090.4;43,184359;1353,768;19,6
693;958.4;34,357597;1354,928;19,6
694;1002.4;34,279894;1356,0779;19,6
695;978.4;41,50502;1357,1919;19,6
696;982.4;42,499673;1358,3891;19,6
697;978.4;26,964998;1359,5488;19,6033
698;946.4;28;1360,7017;19,6033
699;918.4;31,09841;1361,8529;19,6033
700;926.4;33,625387;1363,01;19,6033
701;922.4;33,226495;1364,1615;19,6033
702;850.4;36,490486;1365,329;19,6033
703;770.4;20,176995;1366,4796;19,6033
704;782.4;40,792156;1367,6341;19,6033
705;842.4;49,906579;1368,7872;19,6066
706;798.4;28,095077;1369,9341;19,6066
707;714.4;24,765567;1371,0935;19,6066
708;690.4;45,975839;1372,249;19,6066
709;726.4;30,287511;1373,368;19,6066
710;670.4;43,081318;1374,5533;19,6066
711;730.4;36;1375,7351;19,6066
712;710.4;37,806525;1376,8797;19,6066
713;686.4;25,854293;1378,0494;19,6066
714;606.4;36,172427;1379,1912;19,6066
715;670.4;28,720879;1380,3549;19,6066
716;598.4;26,799668;1381,5112;19,6066
717;610.4;25,612497;1382,6646;19,6066
718;554.4;24,037009;1383,8186;19,6066
719;578.4;26,297444;1384,9949;19,61
720;574.4;42,583252;1386,1239;19,61
721;590.4;20,827332;1387,1792;19,61
722;530.4;31,804961;1388,3434;19,61
723;534.4;36,757463;1389,4981;19,61
724;546.4;28;1390,6596;19,61
725;518.4;29,933259;1391,8119;19,61
726;534.4;23,851392;1392,9732;19,61
727;546.4;41,761226;1394,1357;19,61
728;482.4;23,132469;1395,2993;19,61
729;458.4;41,074458;1396,4433;19,61
730;466.4;34,279894;1397,5969;19,61
731;438.4;33,306656;1398,7514;19,61
732;430.4;29,933259;1399,9172;19,61
733;426.4;32,687068;1401,064;19,61
734;430.4;29,333333;1402,2264;19,61
735;394.4;29,96294;1403,3905;19,61
736;390.4;16;1404,5436;19,61
737;386.4;40,463976;1405,7082;19,61
738;366.4;29,694743;1406,8515;19,6133
739;338.4;32,9039;1408,0097;19,6133
740;358.4;31,09841;1409,1662;19,6133
741;342.4;23,701852;1410,3244;19,6133
742;418.4;34,486712;1411,4768;19,6133
743;346.4;29,844039;1412,6346;19,6133
744;306.4;41,761226;1413,75;19,6133
745;334.4;18,856181;1414,9521;19,6133
746;298.4;37,9239;1416,1077;19,6133
747;338.4;29,484459;1417,2552;19,6266
748;306.4;34,794636;1418,4149;19,6133
749;314.4;23,285666;1419,5703;19,6266
750;338.4;20,176995;1420,7252;19,6266
